Time (s), Current (A), Voltage (V)
0.000000	2.595334E-10	0.000000
0.119008	2.094516E-6	0.060000
0.367024	4.192535E-6	0.120000
0.484044	6.307648E-6	0.180000
0.602330	8.440713E-6	0.240000
0.721752	1.059799E-5	0.300000
0.960126	1.277200E-5	0.360000
1.079376	1.498099E-5	0.420000
1.197383	1.720970E-5	0.480000
1.314390	1.948596E-5	0.540000
1.433550	2.178410E-5	0.600000
1.551634	2.416748E-5	0.660000
1.668642	2.666151E-5	0.720000
1.786649	2.925946E-5	0.780000
1.903064	3.200129E-5	0.840000
2.020069	3.486246E-5	0.900000
2.138581	3.786534E-5	0.960000
2.254874	4.100754E-5	1.020000
2.372101	4.425941E-5	1.080000
2.490110	4.762338E-5	1.140000
2.606681	5.108804E-5	1.200000
2.723823	5.465488E-5	1.260000
2.843232	5.828674E-5	1.320000
2.959241	6.198285E-5	1.380000
3.077271	6.574496E-5	1.440000
3.195736	6.956394E-5	1.500000
3.312054	7.344069E-5	1.560000
3.430597	7.735977E-5	1.620000
3.545927	8.132587E-5	1.680000
3.664293	8.533813E-5	1.740000
3.780302	8.942467E-5	1.800000
3.898316	9.352833E-5	1.860000
4.015316	9.765616E-5	1.920000
4.133360	1.018353E-4	1.980000
4.249974	1.061608E-4	2.040000
4.482140	1.104382E-4	2.100000
4.600365	1.148168E-4	2.160000
4.716995	1.191569E-4	2.220000
4.836496	1.235407E-4	2.280000
4.955494	1.279511E-4	2.340000
5.072502	1.324213E-4	2.400000
5.189172	1.369276E-4	2.460000
5.307697	1.414763E-4	2.520000
5.421977	1.460490E-4	2.580000
5.539296	1.507220E-4	2.640000
5.657767	1.554262E-4	2.700000
5.774774	1.601768E-4	2.760000
5.891781	1.649694E-4	2.820000
6.007789	1.698570E-4	2.880000
6.122842	1.747342E-4	2.940000
7.305613	1.802381E-4	3.000000
7.423570	1.706322E-4	2.880000
7.539578	1.611821E-4	2.760000
7.656593	1.519507E-4	2.640000
7.774593	1.428860E-4	2.520000
7.891602	1.339693E-4	2.400000
8.009608	1.252620E-4	2.280000
8.126615	1.167012E-4	2.160000
8.243623	1.082188E-4	2.040000
8.360631	9.996005E-5	1.920000
8.539160	9.185626E-5	1.800000
8.656703	8.390094E-5	1.680000
8.774710	7.613158E-5	1.560000
8.891778	6.853339E-5	1.440000
9.010255	6.109404E-5	1.320000
9.126705	5.387625E-5	1.200000
9.243963	4.689574E-5	1.080000
9.361371	4.018877E-5	0.960000
9.477984	3.384173E-5	0.840000
9.595992	2.792391E-5	0.720000
9.712999	2.248327E-5	0.600000
9.829007	1.750807E-5	0.480000
9.946426	1.288301E-5	0.360000
10.064506	8.478481E-6	0.240000
10.245997	4.207774E-6	0.120000
10.363003	3.194261E-9	0.000000
10.550041	4.214363E-6	-0.120000
10.793517	8.495938E-6	-0.240000
10.910571	1.287807E-5	-0.360000
11.146069	1.735128E-5	-0.480000
11.264078	2.192026E-5	-0.600000
11.382427	2.660177E-5	-0.720000
11.500712	3.140570E-5	-0.840000
11.616957	3.632677E-5	-0.960000
11.734964	4.137366E-5	-1.080000
11.851972	4.660575E-5	-1.200000
11.970185	5.200556E-5	-1.320000
12.089796	5.762971E-5	-1.440000
12.205317	6.351335E-5	-1.560000
12.324326	6.964934E-5	-1.680000
12.442369	7.607395E-5	-1.800000
12.559880	8.275870E-5	-1.920000
12.677401	8.975555E-5	-2.040000
12.792409	9.698321E-5	-2.160000
12.909417	1.045031E-4	-2.280000
13.026423	1.120059E-4	-2.400000
13.257437	1.200031E-4	-2.520000
13.375445	1.282118E-4	-2.640000
13.493453	1.367198E-4	-2.760000
13.610460	1.453823E-4	-2.880000
0.000000	1.526686E-4	-3.000000
0.118961	1.433842E-4	-2.880000
0.235965	1.344003E-4	-2.760000
0.354973	1.257056E-4	-2.640000
0.472980	1.172992E-4	-2.520000
0.589987	1.092175E-4	-2.400000
0.707999	1.014691E-4	-2.280000
0.825003	9.410027E-5	-2.160000
1.003014	8.702266E-5	-2.040000
1.120083	8.034015E-5	-1.920000
1.236397	7.398864E-5	-1.800000
1.354672	6.796457E-5	-1.680000
1.470680	6.219452E-5	-1.560000
1.588736	5.663971E-5	-1.440000
1.705817	5.126057E-5	-1.320000
1.823101	4.605045E-5	-1.200000
1.941111	4.097085E-5	-1.080000
2.057116	3.602391E-5	-0.960000
2.174304	3.117106E-5	-0.840000
2.291811	2.643012E-5	-0.720000
2.411108	2.180709E-5	-0.600000
2.529114	1.726873E-5	-0.480000
2.646147	1.282092E-5	-0.360000
2.763453	8.473980E-6	-0.240000
2.946832	4.203216E-6	-0.120000
3.064839	2.414381E-10	0.000000
3.251387	4.198423E-6	0.120000
3.493680	8.445514E-6	0.240000
3.611688	1.278401E-5	0.360000
3.850201	1.722164E-5	0.480000
3.968208	2.181997E-5	0.600000
4.086262	2.671433E-5	0.720000
4.201810	3.205250E-5	0.840000
4.321118	3.793536E-5	0.960000
4.438126	4.432859E-5	1.080000
4.556133	5.113579E-5	1.200000
4.673644	5.826577E-5	1.320000
4.792172	6.568019E-5	1.440000
4.908410	7.331184E-5	1.560000
5.024418	8.114839E-5	1.680000
5.141554	8.920177E-5	1.800000
5.257686	9.739423E-5	1.920000
5.376122	1.059461E-4	2.040000
5.607183	1.145546E-4	2.160000
5.723586	1.232699E-4	2.280000
5.840146	1.321153E-4	2.400000
5.957153	1.411778E-4	2.520000
6.075188	1.503969E-4	2.640000
6.193016	1.598274E-4	2.760000
6.309623	1.694126E-4	2.880000
6.427090	1.792690E-4	3.000000
6.544099	1.696611E-4	2.880000
6.661340	1.603496E-4	2.760000
6.779687	1.511560E-4	2.640000
6.897418	1.421780E-4	2.520000
7.015426	1.333445E-4	2.400000
7.132698	1.247025E-4	2.280000
7.248865	1.161884E-4	2.160000
7.365583	1.077800E-4	2.040000
7.483590	9.958243E-5	1.920000
7.662662	9.151668E-5	1.800000
7.778352	8.361771E-5	1.680000
7.895906	7.587281E-5	1.560000
8.012913	6.829241E-5	1.440000
8.131053	6.089421E-5	1.320000
8.247462	5.369267E-5	1.200000
8.364078	4.673174E-5	1.080000
8.482085	4.006326E-5	0.960000
8.598129	3.374310E-5	0.840000
8.714900	2.785681E-5	0.720000
8.831455	2.243060E-5	0.600000
8.950678	1.747618E-5	0.480000
9.068849	1.286678E-5	0.360000
9.185347	8.473611E-6	0.240000
9.367977	4.204944E-6	0.120000
9.485985	3.258799E-9	0.000000
9.672086	4.214125E-6	-0.120000
9.914649	8.493277E-6	-0.240000
10.032657	1.286457E-5	-0.360000
10.270308	1.733702E-5	-0.480000
10.388585	2.190146E-5	-0.600000
10.505592	2.657200E-5	-0.720000
10.623795	3.135890E-5	-0.840000
10.740098	3.628755E-5	-0.960000
10.857627	4.132489E-5	-1.080000
10.975642	4.654057E-5	-1.200000
11.092649	5.195384E-5	-1.320000
11.208650	5.757069E-5	-1.440000
11.327657	6.346515E-5	-1.560000
11.445007	6.959257E-5	-1.680000
11.561070	7.602441E-5	-1.800000
11.678586	8.274607E-5	-1.920000
11.796973	8.972533E-5	-2.040000
11.913322	9.700927E-5	-2.160000
12.029329	1.044815E-4	-2.280000
12.145385	1.119136E-4	-2.400000
12.378918	1.198951E-4	-2.520000
12.497925	1.281295E-4	-2.640000
12.613958	1.365607E-4	-2.760000
12.730975	1.453227E-4	-2.880000
12.848973	1.543101E-4	-3.000000
12.966980	1.448380E-4	-2.880000
13.082988	1.356876E-4	-2.760000
13.201995	1.268160E-4	-2.640000
13.319002	1.182575E-4	-2.520000
13.437010	1.100293E-4	-2.400000
13.555017	1.021344E-4	-2.280000
13.672025	9.457635E-5	-2.160000
13.852036	8.738116E-5	-2.040000
13.968043	8.059280E-5	-1.920000
14.085051	7.414690E-5	-1.800000
14.203058	6.803409E-5	-1.680000
14.321066	6.220716E-5	-1.560000
14.438073	5.660693E-5	-1.440000
14.555080	5.123064E-5	-1.320000
14.673088	4.600629E-5	-1.200000
14.790096	4.094693E-5	-1.080000
14.908103	3.599193E-5	-0.960000
15.023110	3.115158E-5	-0.840000
15.142119	2.642060E-5	-0.720000
15.261126	2.178789E-5	-0.600000
15.378133	1.724970E-5	-0.480000
15.495141	1.281130E-5	-0.360000
15.612148	8.459287E-6	-0.240000
15.793159	4.198539E-6	-0.120000
15.911167	2.245421E-10	0.000000
16.098178	4.195845E-6	0.120000
16.340193	8.437314E-6	0.240000
16.457201	1.276715E-5	0.360000
16.695217	1.720080E-5	0.480000
16.813224	2.180809E-5	0.600000
16.929231	2.672834E-5	0.720000
17.046238	3.212807E-5	0.840000
17.163249	3.806029E-5	0.960000
17.279253	4.449893E-5	1.080000
17.396268	5.134113E-5	1.200000
17.513268	5.850639E-5	1.320000
17.631275	6.594932E-5	1.440000
17.746732	7.359828E-5	1.560000
17.866226	8.145798E-5	1.680000
17.982713	8.950336E-5	1.800000
18.098804	9.772627E-5	1.920000
18.214426	1.062388E-4	2.040000
18.448058	1.148597E-4	2.160000
18.566080	1.235545E-4	2.280000
18.681605	1.324367E-4	2.400000
18.801100	1.414768E-4	2.520000
18.918318	1.506731E-4	2.640000
19.036325	1.600657E-4	2.760000
19.154429	1.697260E-4	2.880000
19.271017	1.795231E-4	3.000000
19.388642	1.700628E-4	2.880000
19.504650	1.606819E-4	2.760000
19.622968	1.514790E-4	2.640000
19.739553	1.424775E-4	2.520000
19.858021	1.336642E-4	2.400000
19.974029	1.249887E-4	2.280000
20.092067	1.164630E-4	2.160000
20.209603	1.080580E-4	2.040000
20.328085	9.985404E-5	1.920000
20.508210	9.177863E-5	1.800000
20.626335	8.387389E-5	1.680000
20.742890	7.611631E-5	1.560000
20.860533	6.852138E-5	1.440000
20.979541	6.112092E-5	1.320000
21.096630	5.390804E-5	1.200000
21.213289	4.692066E-5	1.080000
21.329698	4.022387E-5	0.960000
21.447705	3.387651E-5	0.840000
21.564745	2.793575E-5	0.720000
21.682903	2.247038E-5	0.600000
21.799442	1.748636E-5	0.480000
21.917908	1.286644E-5	0.360000
22.035915	8.468204E-6	0.240000
22.218437	4.204180E-6	0.120000
22.335937	3.252549E-9	0.000000
22.522949	4.207347E-6	-0.120000
22.766417	8.484132E-6	-0.240000
22.883894	1.284387E-5	-0.360000
23.120018	1.732387E-5	-0.480000
23.237493	2.189268E-5	-0.600000
23.354801	2.655877E-5	-0.720000
23.472809	3.133634E-5	-0.840000
23.590851	3.625390E-5	-0.960000
23.707975	4.131997E-5	-1.080000
23.827415	4.655032E-5	-1.200000
23.943420	5.196030E-5	-1.320000
24.062427	5.758602E-5	-1.440000
24.179950	6.347626E-5	-1.560000
24.296522	6.964874E-5	-1.680000
24.414170	7.607823E-5	-1.800000
24.531178	8.278855E-5	-1.920000
24.648481	8.979284E-5	-2.040000
24.764781	9.707816E-5	-2.160000
24.883358	1.045466E-4	-2.280000
25.002364	1.120131E-4	-2.400000
25.233513	1.200016E-4	-2.520000
25.351146	1.282176E-4	-2.640000
25.467407	1.367189E-4	-2.760000
25.583415	1.454106E-4	-2.880000
25.699876	1.544344E-4	-3.000000
25.815053	1.449452E-4	-2.880000
25.934257	1.357845E-4	-2.760000
26.051265	1.268849E-4	-2.640000
26.166828	1.183677E-4	-2.520000
26.284339	1.101036E-4	-2.400000
26.400805	1.021720E-4	-2.280000
26.518811	9.460955E-5	-2.160000
26.698391	8.740443E-5	-2.040000
26.816162	8.059278E-5	-1.920000
26.934399	7.412858E-5	-1.800000
27.051407	6.800995E-5	-1.680000
27.169916	6.216975E-5	-1.560000
27.287427	5.659770E-5	-1.440000
27.404892	5.120652E-5	-1.320000
27.521899	4.599061E-5	-1.200000
27.637967	4.093027E-5	-1.080000
27.754781	3.597482E-5	-0.960000
27.872126	3.113388E-5	-0.840000
27.990134	2.640455E-5	-0.720000
28.107165	2.177610E-5	-0.600000
28.223676	1.724280E-5	-0.480000
28.342211	1.280728E-5	-0.360000
28.459692	8.459815E-6	-0.240000
28.643442	4.198690E-6	-0.120000
28.759836	1.742045E-10	0.000000
28.948077	4.194774E-6	0.120000
29.190458	8.437447E-6	0.240000
29.308005	1.276594E-5	0.360000
29.544538	1.720277E-5	0.480000
29.662941	2.181305E-5	0.600000
29.780404	2.673223E-5	0.720000
29.896902	3.214604E-5	0.840000
30.012907	3.811144E-5	0.960000
30.131915	4.455628E-5	1.080000
30.248922	5.141462E-5	1.200000
30.366930	5.859666E-5	1.320000
30.482937	6.603647E-5	1.440000
30.600944	7.369741E-5	1.560000
30.716008	8.156495E-5	1.680000
30.833560	8.958853E-5	1.800000
30.950567	9.778631E-5	1.920000
31.066587	1.063656E-4	2.040000
31.300207	1.149674E-4	2.160000
31.416672	1.236330E-4	2.280000
31.533681	1.325310E-4	2.400000
31.649996	1.415350E-4	2.520000
31.769167	1.507644E-4	2.640000
31.885708	1.601912E-4	2.760000
32.002716	1.697923E-4	2.880000
32.119807	1.796450E-4	3.000000
32.239304	1.700981E-4	2.880000
32.355698	1.606972E-4	2.760000
32.472705	1.515332E-4	2.640000
32.588738	1.425321E-4	2.520000
32.708313	1.337420E-4	2.400000
32.822813	1.250683E-4	2.280000
32.941935	1.165527E-4	2.160000
33.058943	1.081176E-4	2.040000
33.178338	9.992922E-5	1.920000
33.354823	9.186489E-5	1.800000
33.472830	8.396629E-5	1.680000
33.590861	7.619808E-5	1.560000
33.708465	6.861101E-5	1.440000
33.826008	6.119520E-5	1.320000
33.942132	5.397893E-5	1.200000
34.059140	4.699192E-5	1.080000
34.176561	4.028726E-5	0.960000
34.295102	3.391720E-5	0.840000
34.411480	2.796381E-5	0.720000
34.526487	2.248292E-5	0.600000
34.645880	1.748512E-5	0.480000
34.763430	1.285739E-5	0.360000
34.879931	8.463033E-6	0.240000
35.062954	4.200494E-6	0.120000
35.180479	3.206059E-9	0.000000
35.368065	4.203112E-6	-0.120000
35.611117	8.472798E-6	-0.240000
35.727640	1.282967E-5	-0.360000
35.966170	1.729860E-5	-0.480000
36.082190	2.185847E-5	-0.600000
36.200657	2.651761E-5	-0.720000
36.318326	3.129397E-5	-0.840000
36.437447	3.620076E-5	-0.960000
36.554454	4.125978E-5	-1.080000
36.672162	4.647991E-5	-1.200000
36.788756	5.191461E-5	-1.320000
36.906904	5.756407E-5	-1.440000
37.023912	6.344511E-5	-1.560000
37.141083	6.960156E-5	-1.680000
37.257281	7.605528E-5	-1.800000
37.374881	8.276253E-5	-1.920000
37.491888	8.976637E-5	-2.040000
37.607944	9.702430E-5	-2.160000
37.726460	1.045522E-4	-2.280000
37.843961	1.120322E-4	-2.400000
38.076976	1.199903E-4	-2.520000
38.195426	1.281977E-4	-2.640000
38.313025	1.366650E-4	-2.760000
38.429224	1.453759E-4	-2.880000
38.545736	1.543477E-4	-3.000000
38.663958	1.449106E-4	-2.880000
38.782518	1.357081E-4	-2.760000
38.900529	1.268534E-4	-2.640000
39.016534	1.183172E-4	-2.520000
39.134689	1.100829E-4	-2.400000
39.254112	1.021612E-4	-2.280000
39.370652	9.461652E-5	-2.160000
39.550663	8.739989E-5	-2.040000
39.668197	8.056097E-5	-1.920000
39.786458	7.412847E-5	-1.800000
39.901706	6.799657E-5	-1.680000
40.019714	6.216119E-5	-1.560000
40.136103	5.658080E-5	-1.440000
40.251609	5.119442E-5	-1.320000
40.371068	4.598766E-5	-1.200000
40.488076	4.090943E-5	-1.080000
40.604163	3.596918E-5	-0.960000
40.721766	3.112152E-5	-0.840000
40.838664	2.640546E-5	-0.720000
40.955673	2.176812E-5	-0.600000
41.073679	1.724444E-5	-0.480000
41.190960	1.280216E-5	-0.360000
41.308606	8.460866E-6	-0.240000
41.490617	4.199228E-6	-0.120000
41.608661	3.182192E-10	0.000000
41.796138	4.194073E-6	0.120000
42.036614	8.437783E-6	0.240000
42.163034	1.276767E-5	0.360000
42.400507	1.719820E-5	0.480000
42.517515	2.180202E-5	0.600000
42.633674	2.674421E-5	0.720000
42.751682	3.216069E-5	0.840000
42.867969	3.812675E-5	0.960000
42.985615	4.458665E-5	1.080000
43.104310	5.144984E-5	1.200000
43.222318	5.863281E-5	1.320000
43.339036	6.607720E-5	1.440000
43.455630	7.373814E-5	1.560000
43.573097	8.161724E-5	1.680000
43.690105	8.966196E-5	1.800000
43.808377	9.788463E-5	1.920000
43.924037	1.064177E-4	2.040000
44.155694	1.150270E-4	2.160000
44.272797	1.237104E-4	2.280000
44.390214	1.325747E-4	2.400000
44.507938	1.416297E-4	2.520000
44.624996	1.508450E-4	2.640000
44.742473	1.602265E-4	2.760000
44.859133	1.698298E-4	2.880000
44.975599	1.796294E-4	3.000000
45.092606	1.701215E-4	2.880000
45.210614	1.607471E-4	2.760000
45.327782	1.516083E-4	2.640000
45.446374	1.426309E-4	2.520000
45.562278	1.338322E-4	2.400000
45.679286	1.251618E-4	2.280000
45.797330	1.166671E-4	2.160000
45.913796	1.081985E-4	2.040000
46.030804	1.000023E-4	1.920000
46.208815	9.195611E-5	1.800000
46.326822	8.404805E-5	1.680000
46.444829	7.628540E-5	1.560000
46.562838	6.870976E-5	1.440000
46.678857	6.128554E-5	1.320000
46.795036	5.404917E-5	1.200000
46.912454	4.706839E-5	1.080000
47.031461	4.034618E-5	0.960000
47.148469	3.396094E-5	0.840000
47.265505	2.800053E-5	0.720000
47.380650	2.250482E-5	0.600000
47.498691	1.749108E-5	0.480000
47.615702	1.285945E-5	0.360000
47.734289	8.462385E-6	0.240000
47.916813	4.199781E-6	0.120000
48.033822	3.277741E-9	0.000000
48.221833	4.205983E-6	-0.120000
48.466522	8.482136E-6	-0.240000
48.582670	1.283900E-5	-0.360000
48.820842	1.730907E-5	-0.480000
48.937603	2.187599E-5	-0.600000
49.054610	2.654216E-5	-0.720000
49.170619	3.131285E-5	-0.840000
49.288713	3.623495E-5	-0.960000
49.405138	4.130442E-5	-1.080000
49.523911	4.652915E-5	-1.200000
49.640917	5.195416E-5	-1.320000
49.757994	5.760029E-5	-1.440000
49.875508	6.348576E-5	-1.560000
49.993048	6.966688E-5	-1.680000
50.110353	7.609007E-5	-1.800000
50.228362	8.283869E-5	-1.920000
50.344832	8.981795E-5	-2.040000
50.463230	9.707638E-5	-2.160000
50.579696	1.045937E-4	-2.280000
50.696703	1.120504E-4	-2.400000
50.928077	1.200547E-4	-2.520000
51.046545	1.282697E-4	-2.640000
51.163552	1.367020E-4	-2.760000
51.280605	1.454040E-4	-2.880000
51.397115	1.543736E-4	-3.000000
51.512549	1.449030E-4	-2.880000
51.629557	1.357188E-4	-2.760000
51.745564	1.268610E-4	-2.640000
51.862054	1.183183E-4	-2.520000
51.979568	1.100760E-4	-2.400000
52.096920	1.021478E-4	-2.280000
52.213927	9.456232E-5	-2.160000
52.392495	8.732855E-5	-2.040000
52.508821	8.051852E-5	-1.920000
52.624841	7.406010E-5	-1.800000
52.742396	6.795371E-5	-1.680000
52.859023	6.211183E-5	-1.560000
52.978604	5.652391E-5	-1.440000
53.095611	5.114960E-5	-1.320000
53.211618	4.593033E-5	-1.200000
53.329989	4.086141E-5	-1.080000
53.447500	3.592946E-5	-0.960000
53.564351	3.109759E-5	-0.840000
53.680358	2.637618E-5	-0.720000
53.797631	2.174563E-5	-0.600000
53.914160	1.722500E-5	-0.480000
54.031665	1.278652E-5	-0.360000
54.148673	8.441702E-6	-0.240000
54.329745	4.192482E-6	-0.120000
54.449396	2.852775E-10	0.000000
54.634937	4.191935E-6	0.120000
54.877065	8.431756E-6	0.240000
54.995554	1.276031E-5	0.360000
55.232569	1.719043E-5	0.480000
55.350271	2.180654E-5	0.600000
55.466915	2.674965E-5	0.720000
55.583382	3.217643E-5	0.840000
55.702388	3.814758E-5	0.960000
55.817888	4.461642E-5	1.080000
55.934428	5.148608E-5	1.200000
56.051960	5.867854E-5	1.320000
56.168968	6.611052E-5	1.440000
56.285022	7.377668E-5	1.560000
56.403406	8.164375E-5	1.680000
56.518665	8.968196E-5	1.800000
56.636787	9.789658E-5	1.920000
56.754818	1.064472E-4	2.040000
56.986419	1.150612E-4	2.160000
57.103426	1.237238E-4	2.280000
57.221434	1.325833E-4	2.400000
57.338047	1.415988E-4	2.520000
57.456573	1.507848E-4	2.640000
57.573037	1.602352E-4	2.760000
57.691044	1.698407E-4	2.880000
57.808311	1.796726E-4	3.000000
57.924709	1.701329E-4	2.880000
58.043101	1.608254E-4	2.760000
58.161108	1.516616E-4	2.640000
58.277199	1.426778E-4	2.520000
58.393722	1.338538E-4	2.400000
58.512320	1.251761E-4	2.280000
58.629325	1.166760E-4	2.160000
58.747334	1.082495E-4	2.040000
58.863842	1.000422E-4	1.920000
58.980365	9.201439E-5	1.800000
59.157833	8.410912E-5	1.680000
59.274841	7.632667E-5	1.560000
59.393240	6.873291E-5	1.440000
59.508837	6.131366E-5	1.320000
59.628073	5.410572E-5	1.200000
59.745105	4.712369E-5	1.080000
59.862605	4.039552E-5	0.960000
59.980111	3.400409E-5	0.840000
60.098347	2.803128E-5	0.720000
60.215355	2.252285E-5	0.600000
60.333421	1.749797E-5	0.480000
60.449818	1.286018E-5	0.360000
60.568210	8.467998E-6	0.240000
60.751222	4.202970E-6	0.120000
60.868725	3.192914E-9	0.000000
61.056193	4.204531E-6	-0.120000
61.298267	8.474563E-6	-0.240000
61.414790	1.283808E-5	-0.360000
61.652251	1.730444E-5	-0.480000
61.769294	2.186554E-5	-0.600000
61.886755	2.653662E-5	-0.720000
62.002763	3.131367E-5	-0.840000
62.121770	3.622651E-5	-0.960000
62.237777	4.127466E-5	-1.080000
62.355787	4.650349E-5	-1.200000
62.472793	5.193156E-5	-1.320000
62.590800	5.757830E-5	-1.440000
62.709337	6.348762E-5	-1.560000
62.825731	6.964302E-5	-1.680000
62.944738	7.609557E-5	-1.800000
63.062746	8.281739E-5	-1.920000
63.179753	8.982533E-5	-2.040000
63.296830	9.711536E-5	-2.160000
63.413352	1.045769E-4	-2.280000
63.531668	1.120727E-4	-2.400000
63.762720	1.200282E-4	-2.520000
63.879977	1.282314E-4	-2.640000
63.996956	1.366684E-4	-2.760000
64.113962	1.454070E-4	-2.880000
64.229970	1.543407E-4	-3.000000
64.348505	1.448402E-4	-2.880000
64.464811	1.356887E-4	-2.760000
64.582184	1.268126E-4	-2.640000
64.699190	1.182589E-4	-2.520000
64.817607	1.099975E-4	-2.400000
64.932861	1.020854E-4	-2.280000
65.050139	9.450965E-5	-2.160000
65.228150	8.730229E-5	-2.040000
65.347620	8.047308E-5	-1.920000
65.463812	7.402577E-5	-1.800000
65.583309	6.790034E-5	-1.680000
65.700310	6.207320E-5	-1.560000
65.815829	5.649322E-5	-1.440000
65.933223	5.112459E-5	-1.320000
66.050756	4.592615E-5	-1.200000
66.167766	4.085266E-5	-1.080000
66.284812	3.591604E-5	-0.960000
66.404349	3.108773E-5	-0.840000
66.520733	2.636286E-5	-0.720000
66.639740	2.174262E-5	-0.600000
66.757772	1.721881E-5	-0.480000
66.876180	1.278294E-5	-0.360000
66.993685	8.445533E-6	-0.240000
67.175036	4.190199E-6	-0.120000
67.292104	2.107955E-10	0.000000
67.480688	4.189964E-6	0.120000
67.722046	8.423935E-6	0.240000
67.840501	1.275099E-5	0.360000
68.077098	1.718013E-5	0.480000
68.195106	2.179018E-5	0.600000
68.312392	2.673197E-5	0.720000
68.428753	3.217641E-5	0.840000
68.548094	3.816111E-5	0.960000
68.666125	4.463908E-5	1.080000
68.782203	5.150933E-5	1.200000
68.901672	5.870923E-5	1.320000
69.016909	6.615048E-5	1.440000
69.134915	7.382032E-5	1.560000
