Time (s), Current (A), Voltage (V)
0.000000	7.711391E-10	0.000000
0.117200	1.207638E-6	0.012000
0.360696	2.404212E-6	0.024000
0.477458	3.603360E-6	0.036000
0.594798	4.807894E-6	0.048000
0.713321	6.024808E-6	0.060000
0.832322	7.252860E-6	0.072000
0.949325	8.493444E-6	0.084000
1.068326	9.759069E-6	0.096000
1.187327	1.114423E-5	0.108000
1.425331	1.244825E-5	0.120000
1.543330	1.378486E-5	0.132000
1.660331	1.714939E-5	0.144000
1.779332	1.653991E-5	0.156000
1.895333	1.796670E-5	0.168000
2.012334	1.943146E-5	0.180000
2.130337	2.092854E-5	0.192000
2.247337	2.246388E-5	0.204000
2.363932	2.403985E-5	0.216000
2.481083	2.566037E-5	0.228000
2.601279	2.731410E-5	0.240000
2.717778	2.901524E-5	0.252000
2.833344	3.076810E-5	0.264000
2.951344	3.256110E-5	0.276000
3.068531	3.440869E-5	0.288000
3.185549	3.632682E-5	0.300000
3.305139	3.826304E-5	0.312000
3.424145	4.027558E-5	0.324000
3.541142	4.236391E-5	0.336000
3.660424	4.450895E-5	0.348000
3.777424	4.670374E-5	0.360000
3.892673	4.896940E-5	0.372000
4.010694	5.131240E-5	0.384000
4.127805	5.371868E-5	0.396000
4.245921	5.623639E-5	0.408000
4.362921	5.882288E-5	0.420000
4.478008	6.150625E-5	0.432000
4.595722	6.427977E-5	0.444000
4.713721	6.713023E-5	0.456000
4.832424	7.009146E-5	0.468000
4.950417	7.319153E-5	0.480000
5.067417	7.640410E-5	0.492000
5.185418	7.973054E-5	0.504000
5.303419	8.319430E-5	0.516000
5.420421	8.676932E-5	0.528000
5.538421	9.054696E-5	0.540000
5.655422	9.441372E-5	0.552000
5.772425	9.850966E-5	0.564000
5.888427	1.028020E-4	0.576000
6.005426	1.093569E-4	0.588000
6.236428	1.138847E-4	0.600000
6.352429	1.187984E-4	0.612000
6.468432	1.239647E-4	0.624000
6.586431	1.295205E-4	0.636000
6.702434	1.353377E-4	0.648000
6.819583	1.414884E-4	0.660000
6.939274	1.481057E-4	0.672000
7.055375	1.549959E-4	0.684000
7.173641	1.625332E-4	0.696000
7.291702	1.706614E-4	0.708000
7.406859	1.793480E-4	0.720000
7.525200	1.886823E-4	0.732000
7.641254	1.987002E-4	0.744000
7.758256	2.098001E-4	0.756000
7.875077	2.218361E-4	0.768000
7.993166	2.352788E-4	0.780000
8.110148	2.502897E-4	0.792000
8.227148	2.674295E-4	0.804000
8.344149	2.867885E-4	0.816000
8.461150	3.094102E-4	0.828000
8.577015	3.366386E-4	0.840000
8.693774	3.703511E-4	0.852000
8.810802	4.144545E-4	0.864000
8.928842	4.793243E-4	0.876000
9.044222	6.248332E-4	0.888000
9.162133	2.000101E-3	0.900000
9.336239	2.000078E-3	0.912000
9.452238	2.000106E-3	0.924000
9.569239	2.000104E-3	0.936000
9.687241	2.000108E-3	0.948000
9.804244	2.000095E-3	0.960000
9.921243	2.000113E-3	0.972000
10.040247	2.000098E-3	0.984000
10.157248	2.000107E-3	0.996000
10.275246	2.000108E-3	1.008000
10.393274	2.000108E-3	1.020000
10.509249	2.000118E-3	1.032000
10.627251	2.000108E-3	1.044000
10.742251	2.000115E-3	1.056000
10.859252	2.000116E-3	1.068000
10.977334	2.000119E-3	1.080000
11.093893	2.000102E-3	1.092000
11.211018	2.000107E-3	1.104000
11.329060	2.000103E-3	1.116000
11.444466	2.000109E-3	1.128000
11.562465	2.000098E-3	1.140000
11.679569	2.000116E-3	1.152000
11.796178	2.000103E-3	1.164000
11.914388	2.000115E-3	1.176000
12.031513	2.000116E-3	1.188000
13.211431	2.000114E-3	1.200000
13.327725	2.000112E-3	1.176000
13.445754	2.000113E-3	1.152000
13.562795	2.000104E-3	1.128000
13.679797	2.000128E-3	1.104000
13.794798	2.000114E-3	1.080000
13.912798	2.000109E-3	1.056000
14.030800	2.000114E-3	1.032000
14.147800	2.000110E-3	1.008000
14.265803	2.000104E-3	0.984000
14.381803	2.000095E-3	0.960000
14.497805	2.000107E-3	0.936000
14.615810	2.000091E-3	0.912000
14.733806	2.000102E-3	0.888000
14.850809	7.090963E-4	0.864000
15.024811	4.710148E-4	0.840000
15.141810	3.752779E-4	0.816000
15.257812	3.148023E-4	0.792000
15.375975	2.706563E-4	0.768000
15.493186	2.364507E-4	0.744000
15.610298	2.088091E-4	0.720000
15.727707	1.858152E-4	0.696000
15.846396	1.664238E-4	0.672000
15.964560	1.497560E-4	0.648000
16.080886	1.352565E-4	0.624000
16.197263	1.225942E-4	0.600000
16.315511	1.113671E-4	0.576000
16.432513	1.013414E-4	0.552000
16.549664	9.229407E-5	0.528000
16.729667	8.413829E-5	0.504000
16.848667	7.673815E-5	0.480000
16.966669	6.997295E-5	0.456000
17.083669	6.376817E-5	0.432000
17.200670	5.802397E-5	0.408000
17.317673	5.272080E-5	0.384000
17.434673	4.779958E-5	0.360000
17.552672	4.321042E-5	0.336000
17.669675	3.890985E-5	0.312000
17.787676	3.488887E-5	0.288000
17.905676	3.111782E-5	0.264000
18.023680	2.754852E-5	0.240000
18.140681	2.419690E-5	0.216000
18.259040	2.102284E-5	0.192000
18.378105	1.801147E-5	0.168000
18.495107	1.515030E-5	0.144000
18.613614	1.241635E-5	0.120000
18.729821	9.802608E-6	0.096000
18.912250	7.271490E-6	0.072000
19.030254	4.810264E-6	0.048000
19.148952	2.390002E-6	0.024000
19.265762	9.251736E-9	0.000000
19.453753	2.438634E-6	-0.024000
19.695756	4.913935E-6	-0.048000
19.813757	7.465711E-6	-0.072000
19.932811	1.011222E-5	-0.096000
20.051827	1.302059E-5	-0.120000
20.288762	1.593195E-5	-0.144000
20.405762	1.901068E-5	-0.168000
20.522765	2.224694E-5	-0.192000
20.641783	2.767145E-5	-0.216000
20.758820	2.929572E-5	-0.240000
20.875783	3.312022E-5	-0.264000
20.992768	3.720266E-5	-0.288000
21.109791	4.153588E-5	-0.312000
21.227751	4.616940E-5	-0.336000
21.346054	5.109637E-5	-0.360000
21.464343	5.637166E-5	-0.384000
21.581425	6.204301E-5	-0.408000
21.698446	6.817143E-5	-0.432000
21.816446	7.469005E-5	-0.456000
21.934751	8.179009E-5	-0.480000
22.050822	8.958118E-5	-0.504000
22.168328	9.800938E-5	-0.528000
22.284924	1.080256E-4	-0.552000
22.518323	1.180206E-4	-0.576000
22.635324	1.292777E-4	-0.600000
22.752326	1.417140E-4	-0.624000
22.870328	1.557432E-4	-0.648000
22.987329	1.716295E-4	-0.672000
23.106328	1.898162E-4	-0.696000
23.223331	2.109271E-4	-0.720000
23.340330	2.358105E-4	-0.744000
23.457333	2.657935E-4	-0.768000
23.574335	3.032906E-4	-0.792000
23.689333	3.520016E-4	-0.816000
23.807337	4.212144E-4	-0.840000
23.925337	5.373803E-4	-0.864000
24.044528	1.999665E-3	-0.888000
24.219172	1.999696E-3	-0.912000
24.335165	1.999686E-3	-0.936000
24.451969	1.999682E-3	-0.960000
24.569138	1.999690E-3	-0.984000
24.688264	1.999697E-3	-1.008000
24.806283	1.999697E-3	-1.032000
24.922283	1.999697E-3	-1.056000
25.040150	1.999695E-3	-1.080000
25.157031	1.999689E-3	-1.104000
25.275579	1.999696E-3	-1.128000
25.392618	1.999680E-3	-1.152000
25.509338	1.999690E-3	-1.176000
0.000000	1.999695E-3	-1.200000
0.115987	1.999691E-3	-1.176000
0.234183	1.999670E-3	-1.152000
0.352938	1.999692E-3	-1.128000
0.468958	1.999693E-3	-1.104000
0.586727	1.999690E-3	-1.080000
0.703727	1.999688E-3	-1.056000
0.820292	1.999688E-3	-1.032000
0.935521	1.999684E-3	-1.008000
1.053092	1.999686E-3	-0.984000
1.169728	1.999688E-3	-0.960000
1.286927	1.999687E-3	-0.936000
1.404937	1.999687E-3	-0.912000
1.522937	4.881312E-4	-0.888000
1.697940	3.844938E-4	-0.864000
1.816958	3.236401E-4	-0.840000
1.934942	2.807891E-4	-0.816000
2.052951	2.482874E-4	-0.792000
2.169943	2.218675E-4	-0.768000
2.287946	1.996340E-4	-0.744000
2.404947	1.809140E-4	-0.720000
2.520948	1.645430E-4	-0.696000
2.638948	1.501738E-4	-0.672000
2.756949	1.373922E-4	-0.648000
2.874950	1.258916E-4	-0.624000
2.991953	1.155855E-4	-0.600000
3.109092	1.061429E-4	-0.576000
3.226220	9.751284E-5	-0.552000
3.405228	8.961308E-5	-0.528000
3.523224	8.231545E-5	-0.504000
3.640225	7.549819E-5	-0.480000
3.757226	6.922542E-5	-0.456000
3.876328	6.334457E-5	-0.432000
3.995308	5.786392E-5	-0.408000
4.112329	5.274199E-5	-0.384000
4.230999	4.793153E-5	-0.360000
4.346147	4.340801E-5	-0.336000
4.463148	3.916092E-5	-0.312000
4.580149	3.513442E-5	-0.288000
4.698151	3.132829E-5	-0.264000
4.816164	2.773633E-5	-0.240000
4.933153	2.434313E-5	-0.216000
5.050154	2.111291E-5	-0.192000
5.167155	1.805230E-5	-0.168000
5.284156	1.514489E-5	-0.144000
5.401158	1.237022E-5	-0.120000
5.520160	9.724818E-6	-0.096000
5.702160	7.169488E-6	-0.072000
5.820162	4.709968E-6	-0.048000
5.938229	2.321114E-6	-0.024000
6.056838	2.061841E-8	0.000000
6.245023	2.359582E-6	0.024000
6.485151	4.710171E-6	0.048000
6.604313	7.098609E-6	0.072000
6.723061	9.559912E-6	0.096000
6.840273	1.223098E-5	0.120000
7.077542	1.488437E-5	0.144000
7.195563	1.765217E-5	0.168000
7.312562	2.055354E-5	0.192000
7.429564	2.360356E-5	0.216000
7.547564	2.681784E-5	0.240000
7.664564	3.022179E-5	0.264000
7.782567	3.380313E-5	0.288000
7.899568	3.758645E-5	0.312000
8.016571	4.159588E-5	0.336000
8.133573	4.586075E-5	0.360000
8.251571	5.038254E-5	0.384000
8.368571	5.721559E-5	0.408000
8.487576	6.036293E-5	0.432000
8.604574	6.588200E-5	0.456000
8.722577	7.183326E-5	0.480000
8.838577	7.815996E-5	0.504000
8.955391	8.502987E-5	0.528000
9.072394	9.249744E-5	0.552000
9.190869	1.005716E-4	0.576000
9.307404	1.108779E-4	0.600000
9.537880	1.205248E-4	0.624000
9.654959	1.312974E-4	0.648000
9.772959	1.434416E-4	0.672000
9.889653	1.571022E-4	0.696000
10.006285	1.727248E-4	0.720000
10.123527	1.908456E-4	0.744000
10.240969	2.121302E-4	0.768000
10.358192	2.379622E-4	0.792000
10.476701	2.702354E-4	0.816000
10.593284	3.131805E-4	0.840000
10.709284	3.769723E-4	0.864000
10.827286	4.994197E-4	0.888000
10.944660	2.000088E-3	0.912000
11.120025	2.000111E-3	0.936000
11.236105	2.000105E-3	0.960000
11.353451	2.000111E-3	0.984000
11.470258	2.000120E-3	1.008000
11.588383	2.000106E-3	1.032000
11.706385	2.000121E-3	1.056000
11.823457	2.000124E-3	1.080000
11.940938	2.000124E-3	1.104000
12.057158	2.000113E-3	1.128000
12.175814	2.000114E-3	1.152000
12.294083	2.000108E-3	1.176000
12.410210	2.000119E-3	1.200000
12.527213	2.000129E-3	1.176000
12.644225	2.000125E-3	1.152000
12.760259	2.000124E-3	1.128000
12.878785	2.000118E-3	1.104000
12.995921	2.000104E-3	1.080000
13.112911	2.000106E-3	1.056000
13.230916	2.000114E-3	1.032000
13.348915	2.000116E-3	1.008000
13.465915	2.000115E-3	0.984000
13.583918	2.000110E-3	0.960000
13.700920	2.000108E-3	0.936000
13.817919	2.000103E-3	0.912000
13.933921	2.000110E-3	0.888000
14.050921	7.295714E-4	0.864000
14.225924	4.776489E-4	0.840000
14.342924	3.802459E-4	0.816000
14.460926	3.185182E-4	0.792000
14.579163	2.737370E-4	0.768000
14.698794	2.391823E-4	0.744000
14.816994	2.111322E-4	0.720000
14.933278	1.876754E-4	0.696000
15.050334	1.680506E-4	0.672000
15.169789	1.511925E-4	0.648000
15.288131	1.364938E-4	0.624000
15.406136	1.235797E-4	0.600000
15.520707	1.121179E-4	0.576000
15.638820	1.019373E-4	0.552000
15.755831	9.277189E-5	0.528000
15.933585	8.450464E-5	0.504000
16.052851	7.701798E-5	0.480000
16.168850	7.015900E-5	0.456000
16.286880	6.389109E-5	0.432000
16.403519	5.809358E-5	0.408000
16.520541	5.275266E-5	0.384000
16.636542	4.781915E-5	0.360000
16.753543	4.320764E-5	0.336000
16.873060	3.888747E-5	0.312000
16.988653	3.485298E-5	0.288000
17.105290	3.107229E-5	0.264000
17.222894	2.751335E-5	0.240000
17.340389	2.415632E-5	0.216000
17.458215	2.097841E-5	0.192000
17.575217	1.798104E-5	0.168000
17.692631	1.511835E-5	0.144000
17.809631	1.239027E-5	0.120000
17.926818	9.781662E-6	0.096000
18.111034	7.254550E-6	0.072000
18.227213	4.797837E-6	0.048000
18.344937	2.384913E-6	0.024000
18.462118	9.246477E-9	0.000000
18.649118	2.430634E-6	-0.024000
18.892142	4.900498E-6	-0.048000
19.008676	7.440476E-6	-0.072000
19.125640	1.008140E-5	-0.096000
19.243298	1.297508E-5	-0.120000
19.480132	1.587514E-5	-0.144000
19.597894	1.893205E-5	-0.168000
19.714687	2.216386E-5	-0.192000
19.830812	2.557197E-5	-0.216000
19.949207	2.918152E-5	-0.240000
20.068076	3.300840E-5	-0.264000
20.186078	3.707700E-5	-0.288000
20.303168	4.140731E-5	-0.312000
20.419647	4.602429E-5	-0.336000
20.537326	5.093902E-5	-0.360000
20.653451	5.620259E-5	-0.384000
20.772454	6.187542E-5	-0.408000
20.888519	6.795637E-5	-0.432000
21.007003	7.451889E-5	-0.456000
21.124094	8.165050E-5	-0.480000
21.239588	8.937051E-5	-0.504000
21.356618	9.778052E-5	-0.528000
21.473432	1.076702E-4	-0.552000
21.706091	1.177044E-4	-0.576000
21.823076	1.288927E-4	-0.600000
21.939839	1.414501E-4	-0.624000
22.057966	1.554718E-4	-0.648000
22.173952	1.713028E-4	-0.672000
22.290970	1.895221E-4	-0.696000
22.408487	2.106025E-4	-0.720000
22.525691	2.354365E-4	-0.744000
22.643176	2.653384E-4	-0.768000
22.760278	3.022144E-4	-0.792000
22.876892	3.507313E-4	-0.816000
22.996239	4.190358E-4	-0.840000
23.113355	5.324175E-4	-0.864000
23.230355	1.049956E-3	-0.888000
23.348419	1.999681E-3	-0.912000
23.521597	1.999700E-3	-0.936000
23.639817	1.999698E-3	-0.960000
23.756583	1.999687E-3	-0.984000
23.874122	1.999699E-3	-1.000000
23.992052	1.999692E-3	-0.980000
24.109078	1.999695E-3	-0.960000
24.227078	1.999682E-3	-0.940000
24.344135	1.999682E-3	-0.920000
24.460433	1.999693E-3	-0.900000
24.577537	4.749139E-4	-0.880000
24.752949	3.905682E-4	-0.860000
24.868968	3.372217E-4	-0.840000
24.986392	2.979422E-4	-0.820000
25.103942	2.670075E-4	-0.800000
25.219965	2.416444E-4	-0.780000
25.337351	2.202903E-4	-0.760000
25.453864	2.017800E-4	-0.740000
25.571086	1.857224E-4	-0.720000
25.690087	1.714630E-4	-0.700000
25.807090	1.585611E-4	-0.680000
25.924090	1.471546E-4	-0.660000
26.040679	1.366691E-4	-0.640000
26.159202	1.270611E-4	-0.620000
26.276105	1.182134E-4	-0.600000
26.393946	1.100598E-4	-0.580000
26.512250	1.025388E-4	-0.560000
26.630420	9.554035E-5	-0.540000
26.810284	8.894912E-5	-0.520000
26.927308	8.285181E-5	-0.500000
27.046297	7.708833E-5	-0.480000
27.165092	7.170260E-5	-0.460000
27.281932	6.659835E-5	-0.440000
27.398878	6.177799E-5	-0.420000
27.515514	5.724787E-5	-0.400000
27.633514	5.295765E-5	-0.380000
27.750518	4.886676E-5	-0.360000
27.867527	4.501682E-5	-0.340000
27.983723	4.133528E-5	-0.320000
28.100344	3.782335E-5	-0.300000
28.218470	3.447662E-5	-0.280000
28.336495	3.130977E-5	-0.260000
28.452379	2.826337E-5	-0.240000
28.570112	2.537006E-5	-0.220000
28.685932	2.259154E-5	-0.200000
28.803451	1.992707E-5	-0.180000
28.919668	1.738136E-5	-0.160000
29.038087	1.494567E-5	-0.140000
29.154861	1.259695E-5	-0.120000
29.272962	1.033338E-5	-0.100000
29.391967	8.158580E-6	-0.080000
29.573964	6.046201E-6	-0.060000
29.691965	3.984427E-6	-0.040000
29.809967	1.967832E-6	-0.020000
29.927966	1.739959E-8	0.000000
30.115970	2.001950E-6	0.020000
30.356971	3.990873E-6	0.040000
30.475972	5.998515E-6	0.060000
30.593977	8.047714E-6	0.080000
30.712975	1.013782E-5	0.100000
30.831977	1.245171E-5	0.120000
31.069116	1.468790E-5	0.140000
31.188321	1.700839E-5	0.160000
31.306789	1.942188E-5	0.180000
31.423783	2.194769E-5	0.200000
31.539839	2.455908E-5	0.220000
31.657755	2.729704E-5	0.240000
31.776277	3.016828E-5	0.260000
31.894279	3.315299E-5	0.280000
32.010668	3.628552E-5	0.300000
32.128626	3.959910E-5	0.320000
32.244954	4.303971E-5	0.340000
32.360629	4.666884E-5	0.360000
32.478046	5.051530E-5	0.380000
32.596040	5.453977E-5	0.400000
32.714216	5.879274E-5	0.420000
32.830448	6.326527E-5	0.440000
32.947487	6.802345E-5	0.460000
33.065506	7.308138E-5	0.480000
33.181835	7.845768E-5	0.500000
33.300223	8.417800E-5	0.520000
33.416390	9.027937E-5	0.540000
33.534489	9.686594E-5	0.560000
33.651394	1.039505E-4	0.580000
33.768413	1.130422E-4	0.600000
34.000812	1.212458E-4	0.620000
34.117227	1.302529E-4	0.640000
34.234041	1.401768E-4	0.660000
34.351051	1.511501E-4	0.680000
34.468043	1.633186E-4	0.700000
34.585855	1.770525E-4	0.720000
34.701809	1.924748E-4	0.740000
34.819811	2.103798E-4	0.760000
34.935880	2.312211E-4	0.780000
35.051748	2.559569E-4	0.800000
35.169075	2.866997E-4	0.820000
35.286650	3.267930E-4	0.840000
35.405325	3.829691E-4	0.860000
35.519486	4.802620E-4	0.880000
35.637725	2.000100E-3	0.900000
35.811307	2.000103E-3	0.920000
35.927443	2.000086E-3	0.940000
36.045481	2.000102E-3	0.960000
36.165159	2.000114E-3	0.980000
36.280437	2.000104E-3	1.000000
36.398438	2.000111E-3	0.980000
36.516174	2.000111E-3	0.960000
36.631480	2.000107E-3	0.940000
36.750911	2.000102E-3	0.920000
36.866912	2.000109E-3	0.900000
36.983914	2.000112E-3	0.880000
37.100940	7.153368E-4	0.860000
37.275687	4.998696E-4	0.840000
37.393691	4.071973E-4	0.820000
37.510124	3.470488E-4	0.800000
37.627802	3.030044E-4	0.780000
37.746155	2.682738E-4	0.760000
37.862795	2.399658E-4	0.740000
37.980947	2.163611E-4	0.720000
38.097511	1.960470E-4	0.700000
38.213606	1.784466E-4	0.680000
38.330946	1.630526E-4	0.660000
38.450345	1.493350E-4	0.640000
38.568007	1.371144E-4	0.620000
38.685081	1.261096E-4	0.600000
38.803438	1.162443E-4	0.580000
38.922068	1.072481E-4	0.560000
39.039193	9.900963E-5	0.540000
39.216400	9.151004E-5	0.520000
39.335247	8.458677E-5	0.500000
39.451136	7.821101E-5	0.480000
39.568200	7.231158E-5	0.460000
39.685923	6.683115E-5	0.440000
39.803020	6.171182E-5	0.420000
39.920022	5.693697E-5	0.400000
40.037094	5.251988E-5	0.380000
40.154916	4.833292E-5	0.360000
40.272072	4.439053E-5	0.340000
40.387531	4.068528E-5	0.320000
40.507188	3.718083E-5	0.300000
40.625247	3.386690E-5	0.280000
40.741465	3.072157E-5	0.260000
40.861126	2.773915E-5	0.240000
40.976233	2.490914E-5	0.220000
41.094127	2.220159E-5	0.200000
41.211731	1.962072E-5	0.180000
41.328858	1.714039E-5	0.160000
41.443917	1.477374E-5	0.140000
41.561128	1.248488E-5	0.120000
41.679327	1.027925E-5	0.100000
41.796881	8.147313E-6	0.080000
41.978820	6.068331E-6	0.060000
42.098030	4.023846E-6	0.040000
42.215565	2.003138E-6	0.020000
42.335083	5.893163E-9	0.000000
42.522138	2.038490E-6	-0.020000
42.762918	4.098277E-6	-0.040000
42.879975	6.201839E-6	-0.060000
42.996978	8.369171E-6	-0.080000
43.115504	1.066564E-5	-0.100000
43.354581	1.298756E-5	-0.120000
43.473731	1.540964E-5	-0.140000
43.591169	1.793218E-5	-0.160000
43.707831	2.056277E-5	-0.180000
43.825215	2.332923E-5	-0.200000
43.942032	2.623157E-5	-0.220000
44.058649	2.927388E-5	-0.240000
44.175651	3.243903E-5	-0.260000
44.294471	3.582464E-5	-0.280000
44.413320	3.935286E-5	-0.300000
44.529954	4.307939E-5	-0.320000
44.646531	4.701282E-5	-0.340000
44.764532	5.118320E-5	-0.360000
44.883080	5.560461E-5	-0.380000
45.000004	6.028775E-5	-0.400000
45.117256	6.525166E-5	-0.420000
45.235471	7.056179E-5	-0.440000
45.352130	7.621889E-5	-0.460000
45.470165	8.226693E-5	-0.480000
45.586683	8.873728E-5	-0.500000
45.704685	9.571025E-5	-0.520000
45.822753	1.032247E-4	-0.540000
45.940149	1.125928E-4	-0.560000
46.171791	1.213076E-4	-0.580000
46.287921	1.308424E-4	-0.600000
46.405223	1.413441E-4	-0.620000
46.522159	1.528915E-4	-0.640000
46.637931	1.656816E-4	-0.660000
46.755933	1.800183E-4	-0.680000
46.872988	1.960639E-4	-0.700000
46.989483	2.141632E-4	-0.720000
47.106710	2.351403E-4	-0.740000
47.225347	2.595341E-4	-0.760000
47.341796	2.886567E-4	-0.780000
47.460172	3.239537E-4	-0.800000
47.577196	3.692903E-4	-0.820000
47.694041	4.308647E-4	-0.840000
47.811219	5.266066E-4	-0.860000
47.930220	7.476123E-4	-0.880000
48.046399	1.999669E-3	-0.900000
48.219953	1.999680E-3	-0.920000
48.336080	1.999678E-3	-0.940000
48.454100	1.999682E-3	-0.960000
48.570233	1.999684E-3	-0.980000
48.688422	1.999696E-3	-1.000000
48.806449	1.999674E-3	-0.980000
48.922692	1.999683E-3	-0.960000
49.038747	1.999681E-3	-0.940000
49.155830	1.999682E-3	-0.920000
49.274285	1.999687E-3	-0.900000
49.391916	4.675405E-4	-0.880000
49.564568	3.860818E-4	-0.860000
49.684015	3.341796E-4	-0.840000
49.801387	2.955108E-4	-0.820000
49.920425	2.651454E-4	-0.800000
50.035922	2.400495E-4	-0.780000
50.152791	2.190736E-4	-0.760000
50.271553	2.007936E-4	-0.740000
50.389650	1.847241E-4	-0.720000
50.505737	1.705824E-4	-0.700000
50.623514	1.579005E-4	-0.680000
50.740604	1.464299E-4	-0.660000
50.856715	1.360183E-4	-0.640000
50.976238	1.264748E-4	-0.620000
51.094381	1.177918E-4	-0.600000
51.211382	1.096637E-4	-0.580000
51.329383	1.021224E-4	-0.560000
51.448490	9.518533E-5	-0.540000
51.626211	8.870484E-5	-0.520000
51.744539	8.263651E-5	-0.500000
51.860541	7.690430E-5	-0.480000
51.979543	7.151972E-5	-0.460000
52.097149	6.646209E-5	-0.440000
52.213422	6.166239E-5	-0.420000
52.331452	5.714166E-5	-0.400000
52.448200	5.284745E-5	-0.380000
52.566370	4.879877E-5	-0.360000
52.684248	4.493570E-5	-0.340000
52.800093	4.125090E-5	-0.320000
52.917273	3.775965E-5	-0.300000
53.035033	3.444744E-5	-0.280000
53.151822	3.126196E-5	-0.260000
53.269105	2.823229E-5	-0.240000
53.386125	2.535085E-5	-0.220000
53.503163	2.257694E-5	-0.200000
53.618695	1.991492E-5	-0.180000
53.735831	1.738100E-5	-0.160000
53.852707	1.493135E-5	-0.140000
53.970102	1.258908E-5	-0.120000
54.089227	1.032883E-5	-0.100000
54.207025	8.159397E-6	-0.080000
